# Tone frequency (Hz)	Measured Fidelity	Simulated Fidelity	Frequency (Hz)	Analytic Fidelity
0.000000000000000000e+00 8.945575900000000621e-03 0.000000000000000000e+00 1.591549430918953456e-01 9.999999715491472152e-01
1.000000000000000000e+02 1.918256299999999970e-02 9.848462868308580087e-03 1.591549430918953334e+01 9.997157125684426049e-01
2.000000000000000000e+02 4.605068999999999829e-02 3.663261904331512747e-02 3.183098861837906668e+01 9.988654978086587422e-01
3.000000000000000000e+02 8.655454199999999820e-02 7.315840737038531438e-02 4.774648292756860002e+01 9.974572543877529007e-01
4.000000000000000000e+02 1.191122700000000062e-01 1.103936318736818967e-01 6.366197723675813336e+01 9.955040015512083285e-01
5.000000000000000000e+02 1.462807799999999991e-01 1.401002957408991889e-01 7.957747154594767380e+01 9.930236656762942982e-01
6.000000000000000000e+02 1.634793900000000022e-01 1.564450982692736081e-01 9.549296585513720004e+01 9.900387899649742973e-01
7.000000000000000000e+02 1.682439099999999965e-01 1.565146247601232887e-01 1.114084601643267405e+02 9.865761753672690482e-01
8.000000000000000000e+02 1.473741799999999935e-01 1.402872093864296066e-01 1.273239544735162667e+02 9.826664625546623899e-01
9.000000000000000000e+02 1.179582200000000025e-01 1.106384636389699944e-01 1.432394487827058072e+02 9.783436660999318413e-01
1.000000000000000000e+03 7.959549100000000432e-02 7.336085917827564473e-02 1.591549430918953476e+02 9.736446729239982556e-01
1.100000000000000000e+03 4.544210099999999863e-02 3.668787729819678739e-02 1.750704374010848881e+02 9.686087175238304869e-01
1.200000000000000000e+03 2.071170699999999934e-02 9.754632563928790009e-03 1.909859317102744001e+02 9.632768465022534254e-01
1.300000000000000000e+03 8.032025800000000201e-03 2.793518821796554020e-06 2.069014260194639405e+02 9.576913845057768437e-01
1.400000000000000000e+03 1.773802000000000018e-02 1.057826658624298061e-02 2.228169203286534810e+02 9.518954128834893336e-01
1.500000000000000000e+03 4.627047499999999841e-02 3.912720065799855235e-02 2.387324146378430214e+02 9.459322712664299804e-01
1.600000000000000000e+03 9.050945900000000044e-02 7.872895677403977943e-02 2.546479089470325334e+02 9.398450909006013099e-01
1.700000000000000000e+03 1.302318699999999996e-01 1.203957027395878010e-01 2.705634032562221023e+02 9.336763670217201883e-01
1.800000000000000000e+03 1.595761499999999999e-01 1.557014076193929952e-01 2.864788975654116143e+02 9.274675759108694795e-01
1.900000000000000000e+03 1.864198099999999914e-01 1.784438930120041122e-01 3.023943918746011263e+02 9.212588405897076393e-01
2.000000000000000000e+03 1.906916399999999956e-01 1.851292112820843994e-01 3.183098861837906952e+02 9.150886474678101568e-01
2.100000000000000000e+03 1.712273500000000004e-01 1.748274059832700955e-01 3.342253804929802072e+02 9.089936147001447253e-01
2.200000000000000000e+03 1.561507099999999981e-01 1.490436950714660036e-01 3.501408748021697761e+02 9.030083115959675055e-01
2.300000000000000000e+03 1.164066299999999970e-01 1.118147461642347990e-01 3.660563691113592881e+02 8.971651271761780233e-01
2.400000000000000000e+03 7.728670499999999721e-02 6.978060930750573654e-02 3.819718634205488001e+02 8.914941849270954233e-01
2.500000000000000000e+03 4.181810500000000125e-02 3.158783940467434215e-02 3.978873577297383690e+02 8.860232999560844203e-01
2.600000000000000000e+03 1.347575300000000004e-02 6.246655856867277049e-03 4.138028520389278810e+02 8.807779741195729262e-01
2.700000000000000000e+03 7.693623699999999933e-03 7.045802156005765695e-04 4.297183463481174499e+02 8.757814242590908904e-01
2.800000000000000000e+03 2.597724499999999950e-02 1.764271805694730966e-02 4.456338406573069619e+02 8.710546384314142854e-01
2.900000000000000000e+03 6.181663300000000277e-02 5.465125273540361733e-02 4.615493349664964740e+02 8.666164549348689405e-01
3.000000000000000000e+03 2.129864200000000096e-01 1.052302824817232946e-01 4.774648292756860428e+02 8.624836589922793006e-01
3.100000000000000000e+03 1.613123700000000105e-01 1.610453392238936077e-01 4.933803235848755548e+02 8.586710921271145658e-01
3.200000000000000000e+03 2.118524900000000044e-01 2.142639960316833903e-01 5.092958178940650669e+02 8.551917695382642570e-01
3.300000000000000000e+03 2.714352600000000115e-01 2.590553519723622911e-01 5.252113122032545789e+02 8.520570011166921365e-01
3.400000000000000000e+03 2.929511699999999830e-01 2.919920776063337220e-01 5.411268065124442046e+02 8.492765121322638500e-01
3.500000000000000000e+03 3.144016600000000272e-01 3.116668248553697840e-01 5.570423008216337166e+02 8.468585600322580120e-01
3.600000000000000000e+03 3.143125199999999841e-01 3.180575905875119846e-01 5.729577951308232286e+02 8.448100442186153858e-01
3.700000000000000000e+03 3.084185099999999791e-01 3.120113176881403882e-01 5.888732894400127407e+02 8.431366060963583209e-01
3.800000000000000000e+03 2.979803999999999786e-01 2.949537097028577803e-01 6.047887837492022527e+02 8.418427171017320854e-01
3.900000000000000000e+03 2.731968799999999753e-01 2.688146787253689052e-01 6.207042780583918784e+02 8.409317528195530134e-01
4.000000000000000000e+03 2.353759300000000110e-01 2.360035471153708042e-01 6.366197723675813904e+02 8.404060516821401094e-01
4.100000000000000000e+03 2.058418099999999862e-01 1.992898896878911030e-01 6.525352666767709024e+02 8.402669571066601062e-01
4.200000000000000000e+03 1.653198700000000076e-01 1.615704320242614123e-01 6.684507609859604145e+02 8.405148422756176796e-01
4.300000000000000000e+03 1.342373199999999933e-01 1.255212315396385114e-01 6.843662552951499265e+02 8.411491171001321820e-01
4.400000000000000000e+03 9.923728599999999400e-02 9.326417652697865934e-02 7.002817496043395522e+02 8.421682172322864091e-01
4.500000000000000000e+03 7.251299899999999465e-02 6.614274469567985038e-02 7.161972439135290642e+02 8.435695753167979927e-01
4.600000000000000000e+03 5.337617199999999951e-02 4.467221671097843655e-02 7.321127382227185763e+02 8.453495749991752906e-01
4.700000000000000000e+03 3.467078099999999774e-02 2.865218754532557893e-02 7.480282325319080883e+02 8.475034885428693876e-01
4.800000000000000000e+03 2.040558300000000144e-02 1.738846195990075005e-02 7.639437268410976003e+02 8.500253992563189254e-01
4.900000000000000000e+03 1.788278999999999910e-02 9.935084271244211396e-03 7.798592211502872260e+02 8.529081102955566873e-01
5.000000000000000000e+03 1.136618100000000020e-01 5.306321587296136330e-03 7.957747154594767380e+02 8.561430417907840429e-01
5.100000000000000000e+03 8.971978000000000245e-03 2.623758676067803209e-03 8.116902097686662501e+02 8.597201186453989896e-01
5.200000000000000000e+03 8.773856800000000289e-03 1.183397774750023996e-03 8.276057040778557621e+02 8.636276517701075850e-01
5.300000000000000000e+03 8.745007200000000022e-03 4.762101386436144073e-04 8.435211983870452741e+02 8.678522159367876299e-01
5.400000000000000000e+03 8.835041000000000075e-03 1.648447762674537010e-04 8.594366926962348998e+02 8.723785278572704360e-01
5.500000000000000000e+03 8.229437299999999705e-03 4.589458608538365297e-05 8.753521870054244118e+02 8.771893284984568773e-01
5.600000000000000000e+03 7.737870800000000264e-03 8.826985578188726065e-06 8.912676813146139239e+02 8.822652740211582856e-01
5.700000000000000000e+03 6.668024199999999894e-03 6.778400368840463399e-07 9.071831756238034359e+02 8.875848400567171170e-01
5.800000000000000000e+03 8.274074600000000390e-03 3.250080724113577697e-08 9.230986699329929479e+02 8.931242442911107027e-01
5.900000000000000000e+03 9.923823199999999220e-03 2.240626138813799067e-07 9.390141642421825736e+02 8.988573924873834997e-01
6.000000000000000000e+03 8.360511600000000362e-03 1.464200196411889059e-07 9.549296585513720856e+02 9.047558531193642395e-01
6.100000000000000000e+03 1.018913800000000036e-02 1.854888421953299899e-08 9.708451528605615977e+02 9.107888656886017342e-01
6.200000000000000000e+03 7.528984899999999723e-03 1.198979197537305972e-08 9.867606471697511097e+02 9.169233875298888892e-01
6.300000000000000000e+03 6.950307600000000391e-03 7.635020035862655305e-08 1.002676141478940622e+03 9.231241834597507800e-01
6.400000000000000000e+03 4.403082200000000071e-03 1.127522510875404978e-07 1.018591635788130134e+03 9.293539619731299162e-01
6.500000000000000000e+03 8.303625499999999979e-03 8.666078634766975757e-08 1.034507130097319759e+03 9.355735608395261416e-01
6.600000000000000000e+03 9.422645900000000199e-03 3.452306212752590307e-08 1.050422624406509158e+03 9.417421838930504219e-01
6.700000000000000000e+03 5.831595499999999918e-03 1.837990209847197907e-09 1.066338118715698783e+03 9.478176895633305676e-01
6.800000000000000000e+03 6.634647999999999934e-03 9.171322137000488567e-09 1.082253613024888409e+03 9.537569302791981674e-01
6.900000000000000000e+03 5.690576000000000141e-03 4.038604643060200670e-08 1.098169107334077808e+03 9.595161403294425462e-01
7.000000000000000000e+03 6.520142799999999877e-03 6.530333030108125434e-08 1.114084601643267433e+03 9.650513681307861802e-01
7.100000000000000000e+03 6.223966400000000183e-03 6.456439770085052466e-08 1.130000095952456832e+03 9.703189471892019746e-01
7.200000000000000000e+03 6.304615199999999593e-03 4.290225955610186171e-08 1.145915590261646457e+03 9.752759984117991277e-01
7.300000000000000000e+03 8.131770400000000107e-03 1.526099134676771883e-08 1.161831084570836083e+03 9.798809549037015287e-01
7.400000000000000000e+03 8.073953000000000033e-03 6.372371764568938701e-10 1.177746578880025481e+03 9.840940990410467215e-01
7.500000000000000000e+03 8.195089200000000088e-03 5.546902713192182856e-09 1.193662073189215107e+03 9.878781005194232634e-01
7.600000000000000000e+03 1.067504700000000001e-01 2.301959902280746876e-08 1.209577567498404505e+03 9.911985433029237846e-01
7.700000000000000000e+03 3.143811399999999964e-03 4.082146174688700122e-08 1.225493061807594131e+03 9.940244289986164272e-01
7.800000000000000000e+03 7.184729899999999815e-03 4.736807800626115117e-08 1.241408556116783757e+03 9.963286441964892548e-01
7.900000000000000000e+03 5.536341999999999652e-03 3.705114192050432767e-08 1.257324050425973155e+03 9.980883797699446891e-01
8.000000000000000000e+03 8.319038900000000694e-03 1.988001239463630017e-08 1.273239544735162781e+03 9.992854910305304372e-01
8.100000000000000000e+03 8.076872699999999503e-03 4.867862368008740303e-09 1.289155039044352179e+03 9.999067889548727273e-01
8.200000000000000000e+03 6.054315299999999886e-03 7.483550430517658958e-11 1.305070533353541805e+03 9.999442544119484522e-01
8.300000000000000000e+03 9.884328600000000589e-03 6.976117804161642668e-09 1.320986027662731431e+03 9.993951693546532233e-01
8.400000000000000000e+03 8.245372200000000013e-03 1.947463767369163907e-08 1.336901521971920829e+03 9.982621612231283859e-01
8.500000000000000000e+03 1.093142499999999982e-02 3.059899621559024724e-08 1.352817016281110455e+03 9.965531592467687938e-01
8.600000000000000000e+03 6.408024600000000216e-03 3.352661379297122699e-08 1.368732510590299853e+03 9.942812638268094805e-01
8.700000000000000000e+03 1.038401199999999976e-02 2.643277029953692155e-08 1.384648004899489479e+03 9.914645326282648385e-01
8.800000000000000000e+03 6.818485400000000134e-03 1.468532354846485060e-08 1.400563499208679104e+03 9.881256893078975700e-01
8.900000000000000000e+03 5.270325600000000388e-03 4.347849877908515922e-09 1.416478993517868503e+03 9.842917628612919412e-01
9.000000000000000000e+03 6.572741099999999601e-03 7.282688559993922562e-12 1.432394487827058128e+03 9.799936673078725180e-01
9.100000000000000000e+03 7.486549200000000397e-03 3.791643697813975767e-09 1.448309982136247527e+03 9.752657327861922187e-01
9.200000000000000000e+03 7.987816800000000286e-03 1.316637217555221024e-08 1.464225476445437153e+03 9.701452000616743732e-01
9.300000000000000000e+03 5.337179200000000123e-03 2.192628205500921919e-08 1.480140970754626778e+03 9.646716909357027081e-01
9.400000000000000000e+03 6.838416699999999744e-03 2.603168269618585121e-08 1.496056465063816177e+03 9.588866670907396639e-01
9.500000000000000000e+03 5.878452699999999961e-03 2.273824976455200045e-08 1.511971959373005802e+03 9.528328895337750959e-01
9.600000000000000000e+03 7.111279800000000137e-03 1.467221548175174039e-08 1.527887453682195201e+03 9.465538900505211517e-01
9.700000000000000000e+03 9.337782899999999206e-03 5.640232159043841848e-09 1.543802947991384826e+03 9.400934650105835511e-01
9.800000000000000000e+03 5.672042300000000072e-03 4.337112836109141815e-10 1.559718442300574452e+03 9.334952005350005688e-01
9.900000000000000000e+03 5.709160599999999787e-03 1.109783039870087940e-09 1.575633936609763850e+03 9.268020365237845670e-01
0.000000000000000000e+00 0.000000000000000000e+00 0.000000000000000000e+00 1.591549430918953476e+03 9.200558754160039765e-01
0.000000000000000000e+00 0.000000000000000000e+00 0.000000000000000000e+00 1.607464925228142874e+03 9.132972398898360211e-01
0.000000000000000000e+00 0.000000000000000000e+00 0.000000000000000000e+00 1.623380419537332500e+03 9.065649820706596085e-01
0.000000000000000000e+00 0.000000000000000000e+00 0.000000000000000000e+00 1.639295913846522126e+03 8.998960452590396564e-01
0.000000000000000000e+00 0.000000000000000000e+00 0.000000000000000000e+00 1.655211408155711524e+03 8.933252777645233067e-01
0.000000000000000000e+00 0.000000000000000000e+00 0.000000000000000000e+00 1.671126902464901150e+03 8.868852971713659938e-01
0.000000000000000000e+00 0.000000000000000000e+00 0.000000000000000000e+00 1.687042396774090548e+03 8.806064022928454804e-01
0.000000000000000000e+00 0.000000000000000000e+00 0.000000000000000000e+00 1.702957891083280174e+03 8.745165292046703787e-01
0.000000000000000000e+00 0.000000000000000000e+00 0.000000000000000000e+00 1.718873385392469800e+03 8.686412470879153469e-01
0.000000000000000000e+00 0.000000000000000000e+00 0.000000000000000000e+00 1.734788879701659198e+03 8.630037891517257087e-01
0.000000000000000000e+00 0.000000000000000000e+00 0.000000000000000000e+00 1.750704374010848824e+03 8.576251136323946866e-01
0.000000000000000000e+00 0.000000000000000000e+00 0.000000000000000000e+00 1.766619868320038222e+03 8.525239897594559801e-01
0.000000000000000000e+00 0.000000000000000000e+00 0.000000000000000000e+00 1.782535362629227848e+03 8.477171036186637032e-01
0.000000000000000000e+00 0.000000000000000000e+00 0.000000000000000000e+00 1.798450856938417473e+03 8.432191790015763910e-01
0.000000000000000000e+00 0.000000000000000000e+00 0.000000000000000000e+00 1.814366351247606872e+03 8.390431085868521599e-01
0.000000000000000000e+00 0.000000000000000000e+00 0.000000000000000000e+00 1.830281845556796497e+03 8.352000911249066739e-01
0.000000000000000000e+00 0.000000000000000000e+00 0.000000000000000000e+00 1.846197339865985896e+03 8.316997706725963724e-01
0.000000000000000000e+00 0.000000000000000000e+00 0.000000000000000000e+00 1.862112834175175522e+03 8.285503743277902178e-01
0.000000000000000000e+00 0.000000000000000000e+00 0.000000000000000000e+00 1.878028328484365147e+03 8.257588453277558971e-01
0.000000000000000000e+00 0.000000000000000000e+00 0.000000000000000000e+00 1.893943822793554546e+03 8.233309687859637904e-01
0.000000000000000000e+00 0.000000000000000000e+00 0.000000000000000000e+00 1.909859317102744171e+03 8.212714877383069378e-01
0.000000000000000000e+00 0.000000000000000000e+00 0.000000000000000000e+00 1.925774811411933570e+03 8.195842075439494501e-01
0.000000000000000000e+00 0.000000000000000000e+00 0.000000000000000000e+00 1.941690305721123195e+03 8.182720870332614860e-01
0.000000000000000000e+00 0.000000000000000000e+00 0.000000000000000000e+00 1.957605800030312594e+03 8.173373151133012104e-01
0.000000000000000000e+00 0.000000000000000000e+00 0.000000000000000000e+00 1.973521294339502219e+03 8.167813718302221471e-01
0.000000000000000000e+00 0.000000000000000000e+00 0.000000000000000000e+00 1.989436788648691845e+03 8.166050731498811777e-01
0.000000000000000000e+00 0.000000000000000000e+00 0.000000000000000000e+00 2.005352282957881243e+03 8.168085989564725091e-01
0.000000000000000000e+00 0.000000000000000000e+00 0.000000000000000000e+00 2.021267777267070869e+03 8.173915039890808920e-01
0.000000000000000000e+00 0.000000000000000000e+00 0.000000000000000000e+00 2.037183271576260267e+03 8.183527116433954030e-01
0.000000000000000000e+00 0.000000000000000000e+00 0.000000000000000000e+00 2.053098765885450121e+03 8.196904907666462403e-01
0.000000000000000000e+00 0.000000000000000000e+00 0.000000000000000000e+00 2.069014260194639519e+03 8.214024157745223320e-01
0.000000000000000000e+00 0.000000000000000000e+00 0.000000000000000000e+00 2.084929754503828917e+03 8.234853106256401212e-01
0.000000000000000000e+00 0.000000000000000000e+00 0.000000000000000000e+00 2.100845248813018316e+03 8.259351774077625663e-01
0.000000000000000000e+00 0.000000000000000000e+00 0.000000000000000000e+00 2.116760743122208169e+03 8.287471105253717552e-01
0.000000000000000000e+00 0.000000000000000000e+00 0.000000000000000000e+00 2.132676237431397567e+03 8.319151977341820992e-01
0.000000000000000000e+00 0.000000000000000000e+00 0.000000000000000000e+00 2.148591731740586965e+03 8.354324095471312717e-01
0.000000000000000000e+00 0.000000000000000000e+00 0.000000000000000000e+00 2.164507226049776818e+03 8.392904788389881077e-01
0.000000000000000000e+00 0.000000000000000000e+00 0.000000000000000000e+00 2.180422720358966217e+03 8.434797728015914764e-01
0.000000000000000000e+00 0.000000000000000000e+00 0.000000000000000000e+00 2.196338214668155615e+03 8.479891597453275143e-01
0.000000000000000000e+00 0.000000000000000000e+00 0.000000000000000000e+00 2.212253708977345468e+03 8.528058735986316918e-01
0.000000000000000000e+00 0.000000000000000000e+00 0.000000000000000000e+00 2.228169203286534866e+03 8.579153793174314480e-01
0.000000000000000000e+00 0.000000000000000000e+00 0.000000000000000000e+00 2.244084697595724265e+03 8.633012427691049151e-01
0.000000000000000000e+00 0.000000000000000000e+00 0.000000000000000000e+00 2.260000191904913663e+03 8.689450089868397953e-01
0.000000000000000000e+00 0.000000000000000000e+00 0.000000000000000000e+00 2.275915686214103516e+03 8.748260929837947675e-01
0.000000000000000000e+00 0.000000000000000000e+00 0.000000000000000000e+00 2.291831180523292915e+03 8.809216875538965486e-01
0.000000000000000000e+00 0.000000000000000000e+00 0.000000000000000000e+00 2.307746674832482313e+03 8.872066926475399296e-01
0.000000000000000000e+00 0.000000000000000000e+00 0.000000000000000000e+00 2.323662169141672166e+03 8.936536709753610808e-01
0.000000000000000000e+00 0.000000000000000000e+00 0.000000000000000000e+00 2.339577663450861564e+03 9.002328344412552363e-01
0.000000000000000000e+00 0.000000000000000000e+00 0.000000000000000000e+00 2.355493157760050963e+03 9.069120658178686512e-01
0.000000000000000000e+00 0.000000000000000000e+00 0.000000000000000000e+00 2.371408652069240816e+03 9.136569797374440860e-01
0.000000000000000000e+00 0.000000000000000000e+00 0.000000000000000000e+00 2.387324146378430214e+03 9.204310265655771817e-01
0.000000000000000000e+00 0.000000000000000000e+00 0.000000000000000000e+00 2.403239640687619612e+03 9.271956420478448813e-01
0.000000000000000000e+00 0.000000000000000000e+00 0.000000000000000000e+00 2.419155134996809011e+03 9.339104447686263910e-01
0.000000000000000000e+00 0.000000000000000000e+00 0.000000000000000000e+00 2.435070629305998864e+03 9.405334824446758279e-01
0.000000000000000000e+00 0.000000000000000000e+00 0.000000000000000000e+00 2.450986123615188262e+03 9.470215269085420218e-01
0.000000000000000000e+00 0.000000000000000000e+00 0.000000000000000000e+00 2.466901617924377661e+03 9.533304163431696177e-01
0.000000000000000000e+00 0.000000000000000000e+00 0.000000000000000000e+00 2.482817112233567514e+03 9.594154419423939206e-01
0.000000000000000000e+00 0.000000000000000000e+00 0.000000000000000000e+00 2.498732606542756912e+03 9.652317747344194565e-01
0.000000000000000000e+00 0.000000000000000000e+00 0.000000000000000000e+00 2.514648100851946310e+03 9.707349268659889452e-01
